Temperature, Emean, Cv, Mabsmean, X
2.00000000e+00,-1.74509654e+00,8.09297678e-01,9.09838125e-01,2.75894647e+00
2.00500000e+00,-1.74101497e+00,8.54163679e-01,9.07369745e-01,4.07675144e+00
2.01000000e+00,-1.73816340e+00,8.06593474e-01,9.07280202e-01,1.37724251e+00
2.01500000e+00,-1.73089783e+00,1.27887886e+00,8.82151134e-01,5.27407329e+01
2.02000000e+00,-1.72822199e+00,1.11697728e+00,8.88562604e-01,3.67198157e+01
2.02500000e+00,-1.72676086e+00,8.47683448e-01,9.01389482e-01,2.62894185e+00
2.03000000e+00,-1.72163119e+00,9.95246957e-01,8.92702320e-01,1.79737393e+01
2.03500000e+00,-1.71834621e+00,8.80743928e-01,8.97579203e-01,2.38164354e+00
2.04000000e+00,-1.71408176e+00,9.78635039e-01,8.90726402e-01,1.27381771e+01
2.04500000e+00,-1.71017412e+00,9.21740691e-01,8.92208226e-01,5.52444394e+00
2.05000000e+00,-1.70605233e+00,9.09709021e-01,8.90283699e-01,4.85356976e+00
2.05500000e+00,-1.70221951e+00,9.26459162e-01,8.88765211e-01,3.48874681e+00
2.06000000e+00,-1.69631472e+00,1.13228108e+00,8.74386151e-01,3.12836631e+01
2.06500000e+00,-1.69347405e+00,9.60643834e-01,8.84717117e-01,3.53817426e+00
2.07000000e+00,-1.68913583e+00,9.93838065e-01,8.81446221e-01,4.88454589e+00
2.07500000e+00,-1.68508332e+00,9.51126469e-01,8.80918116e-01,2.22938948e+00
2.08000000e+00,-1.67981934e+00,9.88550767e-01,8.77105481e-01,3.49960514e+00
2.08500000e+00,-1.67578706e+00,1.07051493e+00,8.73651884e-01,7.02468826e+00
2.09000000e+00,-1.67093495e+00,1.01512064e+00,8.71747323e-01,4.88243644e+00
2.09500000e+00,-1.66542659e+00,1.06608944e+00,8.66916339e-01,8.09052673e+00
2.10000000e+00,-1.66093383e+00,1.12657444e+00,8.60632832e-01,1.78096312e+01
2.10500000e+00,-1.65718348e+00,1.02334710e+00,8.65136523e-01,2.35270985e+00
2.11000000e+00,-1.65127857e+00,1.09545477e+00,8.60014345e-01,6.18734383e+00
2.11500000e+00,-1.64680439e+00,1.10925411e+00,8.56949375e-01,6.20768122e+00
2.12000000e+00,-1.64234311e+00,1.08672435e+00,8.55862687e-01,4.04225943e+00
2.12500000e+00,-1.63666651e+00,1.08308293e+00,8.53382896e-01,1.79959013e+00
2.13000000e+00,-1.62909154e+00,1.42073107e+00,8.29194239e-01,4.70952996e+01
2.13500000e+00,-1.62656419e+00,1.14997583e+00,8.45928673e-01,4.51731438e+00
2.14000000e+00,-1.61993147e+00,1.17822717e+00,8.40657555e-01,4.11624903e+00
2.14500000e+00,-1.61548391e+00,1.17666804e+00,8.38520442e-01,3.15136642e+00
2.15000000e+00,-1.60993437e+00,1.24077301e+00,8.32401752e-01,1.10783843e+01
2.15500000e+00,-1.60312791e+00,1.22982818e+00,8.29809595e-01,3.51226782e+00
2.16000000e+00,-1.59800365e+00,1.25105755e+00,8.25838236e-01,5.11875608e+00
2.16500000e+00,-1.59270961e+00,1.23200923e+00,8.23525613e-01,3.08479356e+00
2.17000000e+00,-1.58444418e+00,1.44452852e+00,8.07558535e-01,2.32418209e+01
2.17500000e+00,-1.58049560e+00,1.28347829e+00,8.13991379e-01,4.32526435e+00
2.18000000e+00,-1.57411336e+00,1.30117871e+00,8.09497650e-01,3.13401141e+00
2.18500000e+00,-1.56584689e+00,1.35670992e+00,8.01162616e-01,4.11456295e+00
2.19000000e+00,-1.56087676e+00,1.41402818e+00,7.96607181e-01,6.66742949e+00
2.19500000e+00,-1.55425877e+00,1.41820465e+00,7.93213320e-01,4.30700084e+00
2.20000000e+00,-1.54535630e+00,1.48106814e+00,7.81531968e-01,9.41302369e+00
2.20500000e+00,-1.54064887e+00,1.47029036e+00,7.79570898e-01,6.80787143e+00
2.21000000e+00,-1.53073034e+00,1.59420904e+00,7.65170667e-01,1.28861838e+01
2.21500000e+00,-1.52165956e+00,1.65323849e+00,7.52765069e-01,1.54792837e+01
2.22000000e+00,-1.51744582e+00,1.60124838e+00,7.53579838e-01,1.28243056e+01
2.22500000e+00,-1.50862034e+00,1.74238346e+00,7.40420397e-01,2.07178165e+01
2.23000000e+00,-1.50229547e+00,1.65158326e+00,7.40675515e-01,9.71684770e+00
2.23500000e+00,-1.49274084e+00,1.73225532e+00,7.22882641e-01,1.50769620e+01
2.24000000e+00,-1.48263464e+00,1.77696170e+00,7.09773504e-01,1.78331733e+01
2.24500000e+00,-1.47448809e+00,1.89790296e+00,6.99785866e-01,1.91845350e+01
2.25000000e+00,-1.46190146e+00,2.08823677e+00,6.67919416e-01,3.53828558e+01
2.25500000e+00,-1.45110372e+00,2.26532705e+00,6.38815761e-01,5.77637428e+01
2.26000000e+00,-1.44264497e+00,2.05325981e+00,6.36423667e-01,4.20705898e+01
2.26500000e+00,-1.43656162e+00,2.12271468e+00,6.33369041e-01,3.98627734e+01
2.27000000e+00,-1.42792033e+00,2.09295345e+00,6.25651183e-01,3.72458489e+01
2.27500000e+00,-1.40967467e+00,2.30004404e+00,5.62158427e-01,6.93256982e+01
2.28000000e+00,-1.39923045e+00,2.14486270e+00,5.39535024e-01,6.43223688e+01
2.28500000e+00,-1.38239358e+00,2.42058786e+00,4.56898978e-01,1.17514602e+02
2.29000000e+00,-1.37754136e+00,2.24533318e+00,4.83198476e-01,8.83890145e+01
2.29500000e+00,-1.36492807e+00,2.33150591e+00,4.33892499e-01,1.02916072e+02
2.30000000e+00,-1.34980856e+00,2.16108217e+00,3.65253154e-01,1.07441773e+02
2.30500000e+00,-1.34237029e+00,2.01988280e+00,3.68752334e-01,9.92011065e+01
2.31000000e+00,-1.32916170e+00,1.85915578e+00,3.04283982e-01,9.13395398e+01
2.31500000e+00,-1.32025213e+00,1.80302392e+00,2.91234033e-01,8.46268215e+01
2.32000000e+00,-1.30980513e+00,1.69890479e+00,2.53210471e-01,7.82283421e+01
2.32500000e+00,-1.30298381e+00,1.63774940e+00,2.47047691e-01,7.38345501e+01
2.33000000e+00,-1.29485957e+00,1.57894220e+00,2.38742248e-01,6.40206220e+01
2.33500000e+00,-1.28848832e+00,1.54089953e+00,2.36853263e-01,6.25173477e+01
2.34000000e+00,-1.28067987e+00,1.54611205e+00,2.19296894e-01,5.85474383e+01
2.34500000e+00,-1.27247637e+00,1.42560893e+00,1.99036182e-01,4.98690693e+01
2.35000000e+00,-1.26547527e+00,1.38017208e+00,1.89364359e-01,4.57550658e+01
2.35500000e+00,-1.25908899e+00,1.35405474e+00,1.78322397e-01,4.25799209e+01
2.36000000e+00,-1.25225927e+00,1.31170571e+00,1.69973795e-01,3.86835707e+01
2.36500000e+00,-1.24554320e+00,1.28469284e+00,1.62172332e-01,3.74151372e+01
2.37000000e+00,-1.23928668e+00,1.27614660e+00,1.56563958e-01,3.49001103e+01
2.37500000e+00,-1.23393536e+00,1.23973772e+00,1.49865622e-01,3.20052026e+01
2.38000000e+00,-1.22659125e+00,1.17866673e+00,1.37425980e-01,2.71187441e+01
2.38500000e+00,-1.22123865e+00,1.18563039e+00,1.34278362e-01,2.59215904e+01
2.39000000e+00,-1.21571381e+00,1.16952521e+00,1.37426947e-01,2.69946217e+01
2.39500000e+00,-1.20910888e+00,1.13697048e+00,1.30839239e-01,2.46853247e+01
2.40000000e+00,-1.20449068e+00,1.13974737e+00,1.27332685e-01,2.40705563e+01
2.40500000e+00,-1.19830225e+00,1.10984032e+00,1.24672246e-01,2.24273210e+01
2.41000000e+00,-1.19282900e+00,1.10910823e+00,1.19307089e-01,2.08595550e+01
2.41500000e+00,-1.18796865e+00,1.07868020e+00,1.17954730e-01,2.02732011e+01
2.42000000e+00,-1.18192346e+00,1.04888784e+00,1.08334318e-01,1.73644137e+01
2.42500000e+00,-1.17705337e+00,1.03566459e+00,1.09369639e-01,1.72364277e+01
2.43000000e+00,-1.17238637e+00,1.03572182e+00,1.11837602e-01,1.74394509e+01
2.43500000e+00,-1.16636311e+00,1.00807679e+00,1.04162155e-01,1.51529372e+01
2.44000000e+00,-1.16169784e+00,9.99104712e-01,1.03275868e-01,1.52759688e+01
2.44500000e+00,-1.15646877e+00,9.91126088e-01,9.72523394e-02,1.35702587e+01
2.45000000e+00,-1.15092930e+00,9.59660504e-01,9.41589439e-02,1.35303761e+01
2.45500000e+00,-1.14703730e+00,9.49750954e-01,9.33052504e-02,1.25693375e+01
2.46000000e+00,-1.14290361e+00,9.62300281e-01,9.32736920e-02,1.23269300e+01
2.46500000e+00,-1.13759507e+00,9.46431670e-01,9.03804047e-02,1.25295979e+01
2.47000000e+00,-1.13259872e+00,9.38618769e-01,8.77783788e-02,1.10079934e+01
2.47500000e+00,-1.12844240e+00,9.15301891e-01,8.65436443e-02,1.08895643e+01
2.48000000e+00,-1.12310282e+00,8.90029890e-01,8.21983886e-02,9.83386852e+00
2.48500000e+00,-1.11902044e+00,8.97621618e-01,8.41743988e-02,9.91481035e+00
2.49000000e+00,-1.11496522e+00,8.76434365e-01,8.41887538e-02,9.96452112e+00
2.49500000e+00,-1.11026353e+00,8.66131674e-01,8.14231683e-02,9.45682237e+00
2.50000000e+00,-1.10597889e+00,8.55834374e-01,7.88177030e-02,8.81010644e+00
2.50500000e+00,-1.10189121e+00,8.63619697e-01,7.59676465e-02,8.58118909e+00
2.51000000e+00,-1.09743724e+00,8.42784771e-01,7.58999664e-02,8.11178225e+00
2.51500000e+00,-1.09323218e+00,8.32248398e-01,7.41273362e-02,7.94892312e+00
2.52000000e+00,-1.08963682e+00,8.22645840e-01,7.36396633e-02,7.90749840e+00
2.52500000e+00,-1.08490305e+00,8.18680329e-01,7.23325163e-02,7.49047252e+00
2.53000000e+00,-1.08108688e+00,8.10995639e-01,7.37712666e-02,7.70155999e+00
2.53500000e+00,-1.07732417e+00,8.02398269e-01,7.12094042e-02,7.04791612e+00
2.54000000e+00,-1.07259782e+00,7.91511778e-01,6.97422888e-02,6.91721543e+00
2.54500000e+00,-1.06899843e+00,7.85866192e-01,6.72472656e-02,6.50135454e+00
2.55000000e+00,-1.06553810e+00,7.83737179e-01,6.75042674e-02,6.44248115e+00
2.55500000e+00,-1.06107669e+00,7.72670466e-01,6.52571408e-02,5.85453855e+00
2.56000000e+00,-1.05781389e+00,7.63834077e-01,6.63757646e-02,6.24161164e+00
2.56500000e+00,-1.05363481e+00,7.62018618e-01,6.42851355e-02,5.93376786e+00
2.57000000e+00,-1.04991593e+00,7.50741910e-01,6.42740248e-02,5.86131136e+00
2.57500000e+00,-1.04610526e+00,7.35366857e-01,6.21356237e-02,5.52177432e+00
2.58000000e+00,-1.04300334e+00,7.33699949e-01,6.33837268e-02,5.63869603e+00
2.58500000e+00,-1.03890234e+00,7.23012919e-01,6.16910360e-02,5.28817919e+00
2.59000000e+00,-1.03519117e+00,7.20159958e-01,6.01922506e-02,5.11507942e+00
2.59500000e+00,-1.03247017e+00,7.12531853e-01,6.02129019e-02,5.07180576e+00
2.60000000e+00,-1.02786989e+00,7.01999307e-01,5.94973889e-02,4.97461042e+00
